Scattering Properties Based on Fractal_Aggregate_Optical_Property_Database
Developed by Dr. Chao Liu, School of Atmospheric Physics, NUIST, 2019

Input:
Fractal Dimension:  2.5
Monomer Diameter:  0.06 um
Equivalent Volume Diameter:  0.73
Wavelength:  0.90 um
Refractive Index:  1.30+  0.70i

Output:
Extinction Cross Section:        0.158079E+01 um^2
Mass Extinction Cross Section:   0.424763E+01 m^2/g
Absorption Cross Section:        0.117557E+01 um^2
Mass Absorption Cross Section:   0.315881E+01 m^2/g
Single Scattering Albedo:        0.256355E+00
Asymmetry Factor:                0.872969E+00
Normalized Phase Function:
    0      0.23893167E+02
    1      0.23976400E+02
    2      0.24212098E+02
    3      0.24553390E+02
    4      0.24931272E+02
    5      0.25268481E+02
    6      0.25486524E+02
    7      0.25517275E+02
    8      0.25314957E+02
    9      0.24855715E+02
   10      0.24140945E+02
   11      0.23192678E+02
   12      0.22044958E+02
   13      0.20745738E+02
   14      0.19340839E+02
   15      0.17876874E+02
   16      0.16395834E+02
   17      0.14931781E+02
   18      0.13511865E+02
   19      0.12156757E+02
   20      0.10881352E+02
   21      0.96946206E+01
   22      0.86013831E+01
   23      0.76029007E+01
   24      0.66975355E+01
   25      0.58817708E+01
   26      0.51506453E+01
   27      0.44986692E+01
   28      0.39203641E+01
   29      0.34103144E+01
   30      0.29635311E+01
   31      0.25752741E+01
   32      0.22408988E+01
   33      0.19557110E+01
   34      0.17150482E+01
   35      0.15139423E+01
   36      0.13474045E+01
   37      0.12104370E+01
   38      0.10982176E+01
   39      0.10062487E+01
   40      0.93053872E+00
   41      0.86765981E+00
   42      0.81467762E+00
   43      0.76930832E+00
   44      0.72967901E+00
   45      0.69431807E+00
   46      0.66204149E+00
   47      0.63188597E+00
   48      0.60305334E+00
   49      0.57492551E+00
   50      0.54701468E+00
   51      0.51899917E+00
   52      0.49074350E+00
   53      0.46227136E+00
   54      0.43373275E+00
   55      0.40541621E+00
   56      0.37766381E+00
   57      0.35081866E+00
   58      0.32516922E+00
   59      0.30096591E+00
   60      0.27833776E+00
   61      0.25731738E+00
   62      0.23791628E+00
   63      0.22004955E+00
   64      0.20364649E+00
   65      0.18862521E+00
   66      0.17493244E+00
   67      0.16250681E+00
   68      0.15131862E+00
   69      0.14132125E+00
   70      0.13244969E+00
   71      0.12464880E+00
   72      0.11780971E+00
   73      0.11183132E+00
   74      0.10658433E+00
   75      0.10197318E+00
   76      0.97865882E-01
   77      0.94187001E-01
   78      0.90864438E-01
   79      0.87844600E-01
   80      0.85098260E-01
   81      0.82595227E-01
   82      0.80302255E-01
   83      0.78203576E-01
   84      0.76261498E-01
   85      0.74443774E-01
   86      0.72707664E-01
   87      0.71021408E-01
   88      0.69348301E-01
   89      0.67660861E-01
   90      0.65937225E-01
   91      0.64174966E-01
   92      0.62374563E-01
   93      0.60547122E-01
   94      0.58713104E-01
   95      0.56894542E-01
   96      0.55118036E-01
   97      0.53409893E-01
   98      0.51788528E-01
   99      0.50274392E-01
  100      0.48877076E-01
  101      0.47606357E-01
  102      0.46462591E-01
  103      0.45443003E-01
  104      0.44542811E-01
  105      0.43749764E-01
  106      0.43053925E-01
  107      0.42444184E-01
  108      0.41906244E-01
  109      0.41428648E-01
  110      0.41000889E-01
  111      0.40615034E-01
  112      0.40262446E-01
  113      0.39938838E-01
  114      0.39640027E-01
  115      0.39365006E-01
  116      0.39110939E-01
  117      0.38880519E-01
  118      0.38672548E-01
  119      0.38490043E-01
  120      0.38335584E-01
  121      0.38210099E-01
  122      0.38114463E-01
  123      0.38051170E-01
  124      0.38018679E-01
  125      0.38019650E-01
  126      0.38050940E-01
  127      0.38113922E-01
  128      0.38206339E-01
  129      0.38325768E-01
  130      0.38471318E-01
  131      0.38637107E-01
  132      0.38825449E-01
  133      0.39031291E-01
  134      0.39254211E-01
  135      0.39488392E-01
  136      0.39735060E-01
  137      0.39990965E-01
  138      0.40254878E-01
  139      0.40525518E-01
  140      0.40799139E-01
  141      0.41077771E-01
  142      0.41359839E-01
  143      0.41642777E-01
  144      0.41925510E-01
  145      0.42211847E-01
  146      0.42495697E-01
  147      0.42783388E-01
  148      0.43066398E-01
  149      0.43350243E-01
  150      0.43633786E-01
  151      0.43914443E-01
  152      0.44194235E-01
  153      0.44472346E-01
  154      0.44747669E-01
  155      0.45021929E-01
  156      0.45288890E-01
  157      0.45555581E-01
  158      0.45815491E-01
  159      0.46069940E-01
  160      0.46321901E-01
  161      0.46565052E-01
  162      0.46801861E-01
  163      0.47029806E-01
  164      0.47250087E-01
  165      0.47461142E-01
  166      0.47659732E-01
  167      0.47851160E-01
  168      0.48029895E-01
  169      0.48195061E-01
  170      0.48348961E-01
  171      0.48487936E-01
  172      0.48615585E-01
  173      0.48726742E-01
  174      0.48823748E-01
  175      0.48907349E-01
  176      0.48975463E-01
  177      0.49027761E-01
  178      0.49066881E-01
  179      0.49090253E-01
  180      0.49096934E-01
